# Freq(Hz) Mag(ohms) Phase(deg)
5.00000000000000e+01 -3.17054319940067e+00 -8.18284977046534e+01
5.09509509509510e+01 -3.33140178942292e+00 -8.19794339928686e+01
5.19019019019019e+01 -3.48938432250094e+00 -8.21249225689989e+01
5.28528528528529e+01 -3.64459012396879e+00 -8.22652517488509e+01
5.38038038038038e+01 -3.79711355131305e+00 -8.24006899494757e+01
5.47547547547548e+01 -3.94704431370633e+00 -8.25314873689768e+01
5.57057057057057e+01 -4.09446776681288e+00 -8.26578774997382e+01
5.66566566566567e+01 -4.23946518506855e+00 -8.27800784939445e+01
5.76076076076076e+01 -4.38211401341989e+00 -8.28982943978744e+01
5.85585585585586e+01 -4.52248810031139e+00 -8.30127162693847e+01
5.95095095095095e+01 -4.66065791353643e+00 -8.31235231912332e+01
6.04604604604605e+01 -4.79669074041111e+00 -8.32308831913482e+01
6.14114114114114e+01 -4.93065087359123e+00 -8.33349540798263e+01
6.23623623623624e+01 -5.06259978372748e+00 -8.34358842112887e+01
6.33133133133133e+01 -5.19259628004197e+00 -8.35338131802185e+01
6.42642642642643e+01 -5.32069665980921e+00 -8.36288724560318e+01
6.52152152152152e+01 -5.44695484763371e+00 -8.37211859638683e+01
6.61661661661662e+01 -5.57142252533606e+00 -8.38108706164219e+01
6.71171171171171e+01 -5.69414925318581e+00 -8.38980368015438e+01
6.80680680680681e+01 -5.81518258315399e+00 -8.39827888298387e+01
6.90190190190190e+01 -5.93456816479892e+00 -8.40652253460189e+01
6.99699699699700e+01 -6.05234984434513e+00 -8.41454397073876e+01
7.09209209209209e+01 -6.16856975746754e+00 -8.42235203324630e+01
7.18718718718719e+01 -6.28326841624845e+00 -8.42995510224529e+01
7.28228228228228e+01 -6.39648479073625e+00 -8.43736112580047e+01
7.37737737737738e+01 -6.50825638549844e+00 -8.44457764734177e+01
7.47247247247247e+01 -6.61861931152882e+00 -8.45161183102839e+01
7.56756756756757e+01 -6.72760835384001e+00 -8.45847048523316e+01
7.66266266266266e+01 -6.83525703504476e+00 -8.46516008430733e+01
7.75775775775776e+01 -6.94159767520551e+00 -8.47168678877053e+01
7.85285285285285e+01 -7.04666144820983e+00 -8.47805646405702e+01
7.94794794794795e+01 -7.15047843490818e+00 -8.48427469793698e+01
8.04304304304304e+01 -7.25307767323301e+00 -8.49034681672055e+01
8.13813813813814e+01 -7.35448720550067e+00 -8.49627790034254e+01
8.23323323323323e+01 -7.45473412308242e+00 -8.50207279641678e+01
8.32832832832833e+01 -7.55384460861687e+00 -8.50773613334113e+01
8.42342342342342e+01 -7.65184397592304e+00 -8.51327233252703e+01
8.51851851851852e+01 -7.74875670776166e+00 -8.51868561982087e+01
8.61361361361361e+01 -7.84460649158128e+00 -8.52398003617877e+01
8.70870870870871e+01 -7.93941625337599e+00 -8.52915944765090e+01
8.80380380380380e+01 -8.03320818977237e+00 -8.53422755472689e+01
8.89889889889890e+01 -8.12600379845475e+00 -8.53918790108940e+01
8.99399399399399e+01 -8.21782390703055e+00 -8.54404388181902e+01
9.08908908908909e+01 -8.30868870042977e+00 -8.54879875109018e+01
9.18418418418418e+01 -8.39861774692662e+00 -8.55345562939447e+01
9.27927927927928e+01 -8.48763002286516e+00 -8.55801751032481e+01
9.37437437437437e+01 -8.57574393616504e+00 -8.56248726695124e+01
9.46946946946947e+01 -8.66297734867843e+00 -8.56686765781678e+01
9.56456456456456e+01 -8.74934759746466e+00 -8.57116133257932e+01
9.65965965965966e+01 -8.83487151504415e+00 -8.57537083732380e+01
9.75475475475475e+01 -8.91956544868980e+00 -8.57949861956675e+01
9.84984984984985e+01 -9.00344527880985e+00 -8.58354703297396e+01
9.94494494494494e+01 -9.08652643647267e+00 -8.58751834180999e+01
1.00400400400400e+02 -9.16882392012102e+00 -8.59141472513739e+01
1.01351351351351e+02 -9.25035231151997e+00 -8.59523828078165e+01
1.02302302302302e+02 -9.33112579098024e+00 -8.59899102907712e+01
1.03253253253253e+02 -9.41115815189571e+00 -8.60267491640776e+01
1.04204204204204e+02 -9.49046281463181e+00 -8.60629181855583e+01
1.05155155155155e+02 -9.56905283979904e+00 -8.60984354387036e+01
1.06106106106106e+02 -9.64694094094387e+00 -8.61333183626681e+01
1.07057057057057e+02 -9.72413949668736e+00 -8.61675837806815e+01
1.08008008008008e+02 -9.80066056233975e+00 -8.62012479269715e+01
1.08958958958959e+02 -9.87651588101815e+00 -8.62343264722874e+01
1.09909909909910e+02 -9.95171689429226e+00 -8.62668345481107e+01
1.10860860860861e+02 -1.00262747523820e+01 -8.62987867696281e+01
1.11811811811812e+02 -1.01002003239291e+01 -8.63301972575425e+01
1.12762762762763e+02 -1.01735042053644e+01 -8.63610796587875e+01
1.13713713713714e+02 -1.02461967298900e+01 -8.63914471662116e+01
1.14664664664665e+02 -1.03182879760954e+01 -8.64213125372891e+01
1.15615615615616e+02 -1.03897877762253e+01 -8.64506881119148e+01
1.16566566566567e+02 -1.04607057241152e+01 -8.64795858293339e+01
1.17517517517518e+02 -1.05310511828122e+01 -8.65080172442551e+01
1.18468468468468e+02 -1.06008332918935e+01 -8.65359935421940e+01
1.19419419419419e+02 -1.06700609744992e+01 -8.65635255540873e+01
1.20370370370370e+02 -1.07387429440904e+01 -8.65906237702197e+01
1.21321321321321e+02 -1.08068877109473e+01 -8.66172983534997e+01
1.22272272272272e+02 -1.08745035884180e+01 -8.66435591521201e+01
1.23223223223223e+02 -1.09415986989295e+01 -8.66694157116357e+01
1.24174174174174e+02 -1.10081809797722e+01 -8.66948772864900e+01
1.25125125125125e+02 -1.10742581886672e+01 -8.67199528510191e+01
1.26076076076076e+02 -1.11398379091265e+01 -8.67446511099608e+01
1.27027027027027e+02 -1.12049275556161e+01 -8.67689805084944e+01
1.27977977977978e+02 -1.12695343785284e+01 -8.67929492418357e+01
1.28928928928929e+02 -1.13336654689751e+01 -8.68165652644096e+01
1.29879879879880e+02 -1.13973277634055e+01 -8.68398362986225e+01
1.30830830830831e+02 -1.14605280480601e+01 -8.68627698432533e+01
1.31781781781782e+02 -1.15232729632648e+01 -8.68853731814846e+01
1.32732732732733e+02 -1.15855690075740e+01 -8.69076533885889e+01
1.33683683683684e+02 -1.16474225417666e+01 -8.69296173392900e+01
1.34634634634635e+02 -1.17088397927043e+01 -8.69512717148132e+01
1.35585585585586e+02 -1.17698268570548e+01 -8.69726230096404e+01
1.36536536536537e+02 -1.18303897048875e+01 -8.69936775379849e+01
1.37487487487487e+02 -1.18905341831458e+01 -8.70144414399983e+01
1.38438438438438e+02 -1.19502660190023e+01 -8.70349206877232e+01
1.39389389389389e+02 -1.20095908230992e+01 -8.70551210908034e+01
1.40340340340340e+02 -1.20685140926821e+01 -8.70750483019630e+01
1.41291291291291e+02 -1.21270412146274e+01 -8.70947078222652e+01
1.42242242242242e+02 -1.21851774683713e+01 -8.71141050061615e+01
1.43193193193193e+02 -1.22429280287414e+01 -8.71332450663404e+01
1.44144144144144e+02 -1.23002979686961e+01 -8.71521330783850e+01
1.45095095095095e+02 -1.23572922619753e+01 -8.71707739852486e+01
1.46046046046046e+02 -1.24139157856656e+01 -8.71891726015558e+01
1.46996996996997e+02 -1.24701733226830e+01 -8.72073336177377e+01
1.47947947947948e+02 -1.25260695641770e+01 -8.72252616040085e+01
1.48898898898899e+02 -1.25816091118583e+01 -8.72429610141898e+01
1.49849849849850e+02 -1.26367964802534e+01 -8.72604361893902e+01
1.50800800800801e+02 -1.26916360988890e+01 -8.72776913615467e+01
1.51751751751752e+02 -1.27461323144077e+01 -8.72947306568330e+01
1.52702702702703e+02 -1.28002893926200e+01 -8.73115580989407e+01
1.53653653653654e+02 -1.28541115204916e+01 -8.73281776122398e+01
1.54604604604605e+02 -1.29076028080709e+01 -8.73445930248232e+01
1.55555555555556e+02 -1.29607672903584e+01 -8.73608080714386e+01
1.56506506506507e+02 -1.30136089291193e+01 -8.73768263963159e+01
1.57457457457457e+02 -1.30661316146416e+01 -8.73926515558908e+01
1.58408408408408e+02 -1.31183391674424e+01 -8.74082870214315e+01
1.59359359359359e+02 -1.31702353399235e+01 -8.74237361815720e+01
1.60310310310310e+02 -1.32218238179780e+01 -8.74390023447547e+01
1.61261261261261e+02 -1.32731082225501e+01 -8.74540887415878e+01
1.62212212212212e+02 -1.33240921111498e+01 -8.74689985271192e+01
1.63163163163163e+02 -1.33747789793230e+01 -8.74837347830320e+01
1.64114114114114e+02 -1.34251722620804e+01 -8.74983005197633e+01
1.65065065065065e+02 -1.34752753352844e+01 -8.75126986785507e+01
1.66016016016016e+02 -1.35250915169974e+01 -8.75269321334076e+01
1.66966966966967e+02 -1.35746240687918e+01 -8.75410036930326e+01
1.67917917917918e+02 -1.36238761970226e+01 -8.75549161026534e+01
1.68868868868869e+02 -1.36728510540653e+01 -8.75686720458083e+01
1.69819819819820e+02 -1.37215517395186e+01 -8.75822741460692e+01
1.70770770770771e+02 -1.37699813013744e+01 -8.75957249687063e+01
1.71721721721722e+02 -1.38181427371550e+01 -8.76090270222975e+01
1.72672672672673e+02 -1.38660389950202e+01 -8.76221827602859e+01
1.73623623623624e+02 -1.39136729748427e+01 -8.76351945824851e+01
1.74574574574575e+02 -1.39610475292562e+01 -8.76480648365360e+01
1.75525525525526e+02 -1.40081654646739e+01 -8.76607958193166e+01
1.76476476476476e+02 -1.40550295422803e+01 -8.76733897783056e+01
1.77427427427427e+02 -1.41016424789965e+01 -8.76858489129033e+01
1.78378378378378e+02 -1.41480069484201e+01 -8.76981753757095e+01
1.79329329329329e+02 -1.41941255817400e+01 -8.77103712737614e+01
1.80280280280280e+02 -1.42400009686272e+01 -8.77224386697319e+01
1.81231231231231e+02 -1.42856356581028e+01 -8.77343795830913e+01
1.82182182182182e+02 -1.43310321593832e+01 -8.77461959912314e+01
1.83133133133133e+02 -1.43761929427031e+01 -8.77578898305556e+01
1.84084084084084e+02 -1.44211204401181e+01 -8.77694629975351e+01
1.85035035035035e+02 -1.44658170462864e+01 -8.77809173497323e+01
1.85985985985986e+02 -1.45102851192303e+01 -8.77922547067936e+01
1.86936936936937e+02 -1.45545269810792e+01 -8.78034768514111e+01
1.87887887887888e+02 -1.45985449187932e+01 -8.78145855302558e+01
1.88838838838839e+02 -1.46423411848686e+01 -8.78255824548825e+01
1.89789789789790e+02 -1.46859179980269e+01 -8.78364693026074e+01
1.90740740740741e+02 -1.47292775438848e+01 -8.78472477173601e+01
1.91691691691692e+02 -1.47724219756094e+01 -8.78579193105093e+01
1.92642642642643e+02 -1.48153534145566e+01 -8.78684856616650e+01
1.93593593593594e+02 -1.48580739508935e+01 -8.78789483194568e+01
1.94544544544545e+02 -1.49005856442066e+01 -8.78893088022895e+01
1.95495495495496e+02 -1.49428905240944e+01 -8.78995685990763e+01
1.96446446446446e+02 -1.49849905907462e+01 -8.79097291699517e+01
1.97397397397397e+02 -1.50268878155069e+01 -8.79197919469624e+01
1.98348348348348e+02 -1.50685841414285e+01 -8.79297583347402e+01
1.99299299299299e+02 -1.51100814838080e+01 -8.79396297111539e+01
2.00250250250250e+02 -1.51513817307132e+01 -8.79494074279437e+01
2.01201201201201e+02 -1.51924867434956e+01 -8.79590928113377e+01
2.02152152152152e+02 -1.52333983572919e+01 -8.79686871626503e+01
2.03103103103103e+02 -1.52741183815128e+01 -8.79781917588648e+01
2.04054054054054e+02 -1.53146486003219e+01 -8.79876078531985e+01
2.05005005005005e+02 -1.53549907731021e+01 -8.79969366756539e+01
2.05955955955956e+02 -1.53951466349121e+01 -8.80061794335524e+01
2.06906906906907e+02 -1.54351178969325e+01 -8.80153373120556e+01
2.07857857857858e+02 -1.54749062469012e+01 -8.80244114746704e+01
2.08808808808809e+02 -1.55145133495393e+01 -8.80334030637418e+01
2.09759759759760e+02 -1.55539408469673e+01 -8.80423132009314e+01
2.10710710710711e+02 -1.55931903591120e+01 -8.80511429876831e+01
2.11661661661662e+02 -1.56322634841043e+01 -8.80598935056769e+01
2.12612612612613e+02 -1.56711617986681e+01 -8.80685658172696e+01
2.13563563563564e+02 -1.57098868585001e+01 -8.80771609659247e+01
2.14514514514515e+02 -1.57484401986425e+01 -8.80856799766300e+01
2.15465465465465e+02 -1.57868233338458e+01 -8.80941238563049e+01
2.16416416416416e+02 -1.58250377589252e+01 -8.81024935941965e+01
2.17367367367367e+02 -1.58630849491083e+01 -8.81107901622656e+01
2.18318318318318e+02 -1.59009663603754e+01 -8.81190145155626e+01
2.19269269269269e+02 -1.59386834297927e+01 -8.81271675925933e+01
2.20220220220220e+02 -1.59762375758383e+01 -8.81352503156757e+01
2.21171171171171e+02 -1.60136301987209e+01 -8.81432635912875e+01
2.22122122122122e+02 -1.60508626806919e+01 -8.81512083104045e+01
2.23073073073073e+02 -1.60879363863513e+01 -8.81590853488304e+01
2.24024024024024e+02 -1.61248526629460e+01 -8.81668955675184e+01
2.24974974974975e+02 -1.61616128406631e+01 -8.81746398128847e+01
2.25925925925926e+02 -1.61982182329164e+01 -8.81823189171136e+01
2.26876876876877e+02 -1.62346701366266e+01 -8.81899336984556e+01
2.27827827827828e+02 -1.62709698324966e+01 -8.81974849615176e+01
2.28778778778779e+02 -1.63071185852799e+01 -8.82049734975460e+01
2.29729729729730e+02 -1.63431176440450e+01 -8.82124000847029e+01
2.30680680680681e+02 -1.63789682424325e+01 -8.82197654883351e+01
2.31631631631632e+02 -1.64146715989086e+01 -8.82270704612372e+01
2.32582582582583e+02 -1.64502289170126e+01 -8.82343157439076e+01
2.33533533533534e+02 -1.64856413855993e+01 -8.82415020647982e+01
2.34484484484484e+02 -1.65209101790771e+01 -8.82486301405589e+01
2.35435435435435e+02 -1.65560364576404e+01 -8.82557006762751e+01
2.36386386386386e+02 -1.65910213674986e+01 -8.82627143657002e+01
2.37337337337337e+02 -1.66258660410990e+01 -8.82696718914821e+01
2.38288288288288e+02 -1.66605715973467e+01 -8.82765739253848e+01
2.39239239239239e+02 -1.66951391418193e+01 -8.82834211285041e+01
2.40190190190190e+02 -1.67295697669771e+01 -8.82902141514788e+01
2.41141141141141e+02 -1.67638645523706e+01 -8.82969536346960e+01
2.42092092092092e+02 -1.67980245648419e+01 -8.83036402084929e+01
2.43043043043043e+02 -1.68320508587241e+01 -8.83102744933528e+01
2.43993993993994e+02 -1.68659444760353e+01 -8.83168571000967e+01
2.44944944944945e+02 -1.68997064466701e+01 -8.83233886300709e+01
2.45895895895896e+02 -1.69333377885862e+01 -8.83298696753297e+01
2.46846846846847e+02 -1.69668395079886e+01 -8.83363008188145e+01
2.47797797797798e+02 -1.70002125995092e+01 -8.83426826345281e+01
2.48748748748749e+02 -1.70334580463839e+01 -8.83490156877052e+01
2.49699699699700e+02 -1.70665768206254e+01 -8.83553005349796e+01
2.50650650650651e+02 -1.70995698831939e+01 -8.83615377245471e+01
2.51601601601602e+02 -1.71324381841634e+01 -8.83677277963241e+01
2.52552552552553e+02 -1.71651826628854e+01 -8.83738712821042e+01
2.53503503503504e+02 -1.71978042481501e+01 -8.83799687057096e+01
2.54454454454454e+02 -1.72303038583432e+01 -8.83860205831403e+01
2.55405405405405e+02 -1.72626824016013e+01 -8.83920274227195e+01
2.56356356356356e+02 -1.72949407759633e+01 -8.83979897252355e+01
2.57307307307307e+02 -1.73270798695198e+01 -8.84039079840812e+01
2.58258258258258e+02 -1.73591005605591e+01 -8.84097826853897e+01
2.59209209209209e+02 -1.73910037177110e+01 -8.84156143081677e+01
2.60160160160160e+02 -1.74227902000878e+01 -8.84214033244251e+01
2.61111111111111e+02 -1.74544608574227e+01 -8.84271501993028e+01
2.62062062062062e+02 -1.74860165302057e+01 -8.84328553911966e+01
2.63013013013013e+02 -1.75174580498173e+01 -8.84385193518796e+01
2.63963963963964e+02 -1.75487862386592e+01 -8.84441425266209e+01
2.64914914914915e+02 -1.75800019102835e+01 -8.84497253543023e+01
2.65865865865866e+02 -1.76111058695188e+01 -8.84552682675326e+01
2.66816816816817e+02 -1.76420989125944e+01 -8.84607716927590e+01
2.67767767767768e+02 -1.76729818272627e+01 -8.84662360503765e+01
2.68718718718719e+02 -1.77037553929186e+01 -8.84716617548350e+01
2.69669669669670e+02 -1.77344203807172e+01 -8.84770492147438e+01
2.70620620620621e+02 -1.77649775536899e+01 -8.84823988329739e+01
2.71571571571572e+02 -1.77954276668576e+01 -8.84877110067592e+01
2.72522522522523e+02 -1.78257714673428e+01 -8.84929861277936e+01
2.73473473473473e+02 -1.78560096944787e+01 -8.84982245823282e+01
2.74424424424424e+02 -1.78861430799178e+01 -8.85034267512648e+01
2.75375375375375e+02 -1.79161723477371e+01 -8.85085930102487e+01
2.76326326326326e+02 -1.79460982145429e+01 -8.85137237297586e+01
2.77277277277277e+02 -1.79759213895728e+01 -8.85188192751955e+01
2.78228228228228e+02 -1.80056425747965e+01 -8.85238800069691e+01
2.79179179179179e+02 -1.80352624650145e+01 -8.85289062805826e+01
2.80130130130130e+02 -1.80647817479555e+01 -8.85338984467166e+01
2.81081081081081e+02 -1.80942011043721e+01 -8.85388568513097e+01
2.82032032032032e+02 -1.81235212081343e+01 -8.85437818356389e+01
2.82982982982983e+02 -1.81527427263226e+01 -8.85486737363976e+01
2.83933933933934e+02 -1.81818663193185e+01 -8.85535328857726e+01
2.84884884884885e+02 -1.82108926408935e+01 -8.85583596115188e+01
2.85835835835836e+02 -1.82398223382978e+01 -8.85631542370333e+01
2.86786786786787e+02 -1.82686560523459e+01 -8.85679170814271e+01
2.87737737737738e+02 -1.82973944175020e+01 -8.85726484595964e+01
2.88688688688689e+02 -1.83260380619635e+01 -8.85773486822914e+01
2.89639639639640e+02 -1.83545876077435e+01 -8.85820180561847e+01
2.90590590590591e+02 -1.83830436707509e+01 -8.85866568839377e+01
2.91541541541542e+02 -1.84114068608708e+01 -8.85912654642664e+01
2.92492492492492e+02 -1.84396777820425e+01 -8.85958440920046e+01
2.93443443443443e+02 -1.84678570323360e+01 -8.86003930581678e+01
2.94394394394394e+02 -1.84959452040287e+01 -8.86049126500139e+01
2.95345345345345e+02 -1.85239428836791e+01 -8.86094031511043e+01
2.96296296296296e+02 -1.85518506522005e+01 -8.86138648413629e+01
2.97247247247247e+02 -1.85796690849332e+01 -8.86182979971340e+01
2.98198198198198e+02 -1.86073987517154e+01 -8.86227028912397e+01
2.99149149149149e+02 -1.86350402169533e+01 -8.86270797930357e+01
3.00100100100100e+02 -1.86625940396896e+01 -8.86314289684663e+01
3.01051051051051e+02 -1.86900607736715e+01 -8.86357506801177e+01
3.02002002002002e+02 -1.87174409674170e+01 -8.86400451872716e+01
3.02952952952953e+02 -1.87447351642810e+01 -8.86443127459565e+01
3.03903903903904e+02 -1.87719439025193e+01 -8.86485536089985e+01
3.04854854854855e+02 -1.87990677153526e+01 -8.86527680260716e+01
3.05805805805806e+02 -1.88261071310289e+01 -8.86569562437465e+01
3.06756756756757e+02 -1.88530626728850e+01 -8.86611185055384e+01
3.07707707707708e+02 -1.88799348594074e+01 -8.86652550519545e+01
3.08658658658659e+02 -1.89067242042921e+01 -8.86693661205402e+01
3.09609609609610e+02 -1.89334312165028e+01 -8.86734519459245e+01
3.10560560560561e+02 -1.89600564003296e+01 -8.86775127598647e+01
3.11511511511512e+02 -1.89866002554456e+01 -8.86815487912900e+01
3.12462462462462e+02 -1.90130632769631e+01 -8.86855602663447e+01
3.13413413413413e+02 -1.90394459554889e+01 -8.86895474084305e+01
3.14364364364364e+02 -1.90657487771788e+01 -8.86935104382476e+01
3.15315315315315e+02 -1.90919722237914e+01 -8.86974495738357e+01
3.16266266266266e+02 -1.91181167727407e+01 -8.87013650306138e+01
3.17217217217217e+02 -1.91441828971485e+01 -8.87052570214196e+01
3.18168168168168e+02 -1.91701710658951e+01 -8.87091257565478e+01
3.19119119119119e+02 -1.91960817436705e+01 -8.87129714437884e+01
3.20070070070070e+02 -1.92219153910236e+01 -8.87167942884635e+01
3.21021021021021e+02 -1.92476724644119e+01 -8.87205944934637e+01
3.21971971971972e+02 -1.92733534162488e+01 -8.87243722592844e+01
3.22922922922923e+02 -1.92989586949523e+01 -8.87281277840608e+01
3.23873873873874e+02 -1.93244887449910e+01 -8.87318612636027e+01
3.24824824824825e+02 -1.93499440069311e+01 -8.87355728914281e+01
3.25775775775776e+02 -1.93753249174811e+01 -8.87392628587972e+01
3.26726726726727e+02 -1.94006319095376e+01 -8.87429313547447e+01
3.27677677677678e+02 -1.94258654122286e+01 -8.87465785661125e+01
3.28628628628629e+02 -1.94510258509579e+01 -8.87502046775809e+01
3.29579579579580e+02 -1.94761136474473e+01 -8.87538098717005e+01
3.30530530530531e+02 -1.95011292197798e+01 -8.87573943289219e+01
3.31481481481481e+02 -1.95260729824406e+01 -8.87609582276267e+01
3.32432432432432e+02 -1.95509453463586e+01 -8.87645017441565e+01
3.33383383383383e+02 -1.95757467189468e+01 -8.87680250528420e+01
3.34334334334334e+02 -1.96004775041424e+01 -8.87715283260318e+01
3.35285285285285e+02 -1.96251381024462e+01 -8.87750117341204e+01
3.36236236236236e+02 -1.96497289109613e+01 -8.87784754455758e+01
3.37187187187187e+02 -1.96742503234317e+01 -8.87819196269666e+01
3.38138138138138e+02 -1.96987027302798e+01 -8.87853444429889e+01
3.39089089089089e+02 -1.97230865186436e+01 -8.87887500564921e+01
3.40040040040040e+02 -1.97474020724138e+01 -8.87921366285053e+01
3.40990990990991e+02 -1.97716497722696e+01 -8.87955043182620e+01
